vg	gm	idbyw	gmbyid	gmbygds	ft	cgg	gds	Voverdrive	vd
0.000000e+00	1.113474e-17	1.807417e-19	3.080290e+01	5.517390e+01	9.285016e-04	1.199216e-14	2.018117e-19	-1.012335e+00	1.000000e-01
1.000000e-02	1.515146e-17	2.459425e-19	3.080285e+01	5.517381e+01	1.282986e-03	1.180953e-14	2.746133e-19	-1.002335e+00	1.000000e-01
2.000000e-02	2.061715e-17	3.346636e-19	3.080279e+01	5.517370e+01	1.772064e-03	1.163454e-14	3.736771e-19	-9.923350e-01	1.000000e-01
3.000000e-02	2.805449e-17	4.553897e-19	3.080272e+01	5.517358e+01	2.446593e-03	1.146675e-14	5.084768e-19	-9.823350e-01	1.000000e-01
4.000000e-02	3.817469e-17	6.196659e-19	3.080264e+01	5.517344e+01	3.376574e-03	1.130575e-14	6.919035e-19	-9.723350e-01	1.000000e-01
5.000000e-02	5.194553e-17	8.432019e-19	3.080255e+01	5.517327e+01	4.658320e-03	1.115113e-14	9.414982e-19	-9.623350e-01	1.000000e-01
6.000000e-02	7.068385e-17	1.147374e-18	3.080244e+01	5.517307e+01	6.424317e-03	1.100255e-14	1.281129e-18	-9.523350e-01	1.000000e-01
7.000000e-02	9.618148e-17	1.561270e-18	3.080231e+01	5.517284e+01	8.856764e-03	1.085966e-14	1.743276e-18	-9.423350e-01	1.000000e-01
8.000000e-02	1.308765e-16	2.124470e-18	3.080216e+01	5.517258e+01	1.220616e-02	1.072217e-14	2.372130e-18	-9.323350e-01	1.000000e-01
9.000000e-02	1.780865e-16	2.890828e-18	3.080199e+01	5.517227e+01	1.681681e-02	1.058979e-14	3.227827e-18	-9.223350e-01	1.000000e-01
1.000000e-01	2.423255e-16	3.933627e-18	3.080179e+01	5.517190e+01	2.316189e-02	1.046225e-14	4.392190e-18	-9.123350e-01	1.000000e-01
1.100000e-01	3.297355e-16	5.352580e-18	3.080155e+01	5.517148e+01	3.189144e-02	1.033931e-14	5.976557e-18	-9.023350e-01	1.000000e-01
1.200000e-01	4.486738e-16	7.283364e-18	3.080128e+01	5.517099e+01	4.389836e-02	1.022074e-14	8.132423e-18	-8.923350e-01	1.000000e-01
1.300000e-01	6.105113e-16	9.910591e-18	3.080095e+01	5.517041e+01	6.040879e-02	1.010633e-14	1.106592e-17	-8.823350e-01	1.000000e-01
1.400000e-01	8.307197e-16	1.348546e-17	3.080058e+01	5.516974e+01	8.310610e-02	9.995893e-15	1.505752e-17	-8.723350e-01	1.000000e-01
1.500000e-01	1.130349e-15	1.834974e-17	3.080014e+01	5.516896e+01	1.143009e-01	9.889242e-15	2.048886e-17	-8.623350e-01	1.000000e-01
1.600000e-01	1.538040e-15	2.496848e-17	3.079963e+01	5.516804e+01	1.571640e-01	9.786213e-15	2.787919e-17	-8.523350e-01	1.000000e-01
1.700000e-01	2.092758e-15	3.397441e-17	3.079904e+01	5.516698e+01	2.160456e-01	9.686653e-15	3.793499e-17	-8.423350e-01	1.000000e-01
1.800000e-01	2.847517e-15	4.622842e-17	3.079834e+01	5.516573e+01	2.969126e-01	9.590422e-15	5.161750e-17	-8.323350e-01	1.000000e-01
1.900000e-01	3.874438e-15	6.290176e-17	3.079753e+01	5.516428e+01	4.079477e-01	9.497390e-15	7.023454e-17	-8.223350e-01	1.000000e-01
2.000000e-01	5.271636e-15	8.558799e-17	3.079659e+01	5.516259e+01	5.603689e-01	9.407438e-15	9.556542e-17	-8.123350e-01	1.000000e-01
2.100000e-01	7.172581e-15	1.164551e-16	3.079549e+01	5.516062e+01	7.695524e-01	9.320457e-15	1.300308e-16	-8.023350e-01	1.000000e-01
2.200000e-01	9.758829e-15	1.584524e-16	3.079420e+01	5.515832e+01	1.056568e+00	9.236349e-15	1.769240e-16	-7.923350e-01	1.000000e-01
2.300000e-01	1.327734e-14	2.155922e-16	3.079270e+01	5.515564e+01	1.450279e+00	9.155024e-15	2.407249e-16	-7.823350e-01	1.000000e-01
2.400000e-01	1.806399e-14	2.933327e-16	3.079096e+01	5.515251e+01	1.990215e+00	9.076401e-15	3.275279e-16	-7.723350e-01	1.000000e-01
2.500000e-01	2.457559e-14	3.990980e-16	3.078892e+01	5.514886e+01	2.730497e+00	9.000409e-15	4.456229e-16	-7.623350e-01	1.000000e-01
2.600000e-01	3.343336e-14	5.429866e-16	3.078654e+01	5.514460e+01	3.745202e+00	8.926985e-15	6.062853e-16	-7.523350e-01	1.000000e-01
2.700000e-01	4.548198e-14	7.387330e-16	3.078377e+01	5.513964e+01	5.135682e+00	8.856073e-15	8.248509e-16	-7.423350e-01	1.000000e-01
2.800000e-01	6.186986e-14	1.005016e-15	3.078054e+01	5.513385e+01	7.040565e+00	8.787627e-15	1.122176e-15	-7.323350e-01	1.000000e-01
2.900000e-01	8.415815e-14	1.367235e-15	3.077677e+01	5.512710e+01	9.649383e+00	8.721609e-15	1.526620e-15	-7.223350e-01	1.000000e-01
3.000000e-01	1.144687e-13	1.859926e-15	3.077238e+01	5.511923e+01	1.322117e+01	8.657989e-15	2.076747e-15	-7.123350e-01	1.000000e-01
3.100000e-01	1.556849e-13	2.530041e-15	3.076726e+01	5.511006e+01	1.810975e+01	8.596743e-15	2.824981e-15	-7.023350e-01	1.000000e-01
3.200000e-01	2.117240e-13	3.441402e-15	3.076129e+01	5.509937e+01	2.479826e+01	8.537857e-15	3.842584e-15	-6.923350e-01	1.000000e-01
3.300000e-01	2.879066e-13	4.680749e-15	3.075434e+01	5.508690e+01	3.394594e+01	8.481327e-15	5.226408e-15	-6.823350e-01	1.000000e-01
3.400000e-01	3.914573e-13	6.365940e-15	3.074623e+01	5.507238e+01	4.645190e+01	8.427154e-15	7.108051e-15	-6.723350e-01	1.000000e-01
3.500000e-01	5.321820e-13	8.657086e-15	3.073678e+01	5.505546e+01	6.354146e+01	8.375349e-15	9.666289e-15	-6.623350e-01	1.000000e-01
3.600000e-01	7.233850e-13	1.177163e-14	3.072578e+01	5.503574e+01	8.688337e+01	8.325932e-15	1.314391e-14	-6.523350e-01	1.000000e-01
3.700000e-01	9.831088e-13	1.600479e-14	3.071296e+01	5.501278e+01	1.187483e+02	8.278930e-15	1.787055e-14	-6.423350e-01	1.000000e-01
3.800000e-01	1.335807e-12	2.175720e-14	3.069804e+01	5.498605e+01	1.622231e+02	8.234382e-15	2.429356e-14	-6.323350e-01	1.000000e-01
3.900000e-01	1.814600e-12	2.957237e-14	3.068067e+01	5.495492e+01	2.214998e+02	8.192333e-15	3.301979e-14	-6.223350e-01	1.000000e-01
4.000000e-01	2.464316e-12	4.018720e-14	3.066046e+01	5.491870e+01	3.022648e+02	8.152840e-15	4.487208e-14	-6.123350e-01	1.000000e-01
4.100000e-01	3.345571e-12	5.460026e-14	3.063695e+01	5.487658e+01	4.122208e+02	8.115969e-15	6.096537e-14	-6.023350e-01	1.000000e-01
4.200000e-01	4.540246e-12	7.416371e-14	3.060962e+01	5.482759e+01	5.617867e+02	8.081796e-15	8.280950e-14	-5.923350e-01	1.000000e-01
4.300000e-01	6.158816e-12	1.007071e-13	3.057786e+01	5.477068e+01	7.650314e+02	8.050409e-15	1.124473e-13	-5.823350e-01	1.000000e-01
4.400000e-01	8.350126e-12	1.367036e-13	3.054099e+01	5.470458e+01	1.040916e+03	8.021904e-15	1.526404e-13	-5.723350e-01	1.000000e-01
4.500000e-01	1.131440e-11	1.854929e-13	3.049820e+01	5.462787e+01	1.414938e+03	7.996392e-15	2.071177e-13	-5.623350e-01	1.000000e-01
4.600000e-01	1.532045e-11	2.515788e-13	3.044860e+01	5.453893e+01	1.921302e+03	7.973994e-15	2.809084e-13	-5.523350e-01	1.000000e-01
4.700000e-01	2.072842e-11	3.410272e-13	3.039115e+01	5.443592e+01	2.605761e+03	7.954842e-15	3.807857e-13	-5.423350e-01	1.000000e-01
4.800000e-01	2.801960e-11	4.619929e-13	3.032470e+01	5.431673e+01	3.529324e+03	7.939084e-15	5.158557e-13	-5.323350e-01	1.000000e-01
4.900000e-01	3.783527e-11	6.254191e-13	3.024794e+01	5.417900e+01	4.773036e+03	7.926877e-15	6.983383e-13	-5.223350e-01	1.000000e-01
5.000000e-01	5.102713e-11	8.459574e-13	3.015939e+01	5.402011e+01	6.444125e+03	7.918394e-15	9.445950e-13	-5.123350e-01	1.000000e-01
5.100000e-01	6.872188e-11	1.143175e-12	3.005745e+01	5.383711e+01	8.683778e+03	7.913823e-15	1.276478e-12	-5.023350e-01	1.000000e-01
5.200000e-01	9.240356e-11	1.543129e-12	2.994032e+01	5.362679e+01	1.167690e+04	7.913364e-15	1.723086e-12	-4.923350e-01	1.000000e-01
5.300000e-01	1.240170e-10	2.080398e-12	2.980607e+01	5.338560e+01	1.566418e+04	7.917232e-15	2.323042e-12	-4.823350e-01	1.000000e-01
5.400000e-01	1.660961e-10	2.800701e-12	2.965261e+01	5.310978e+01	2.095676e+04	7.925659e-15	3.127412e-12	-4.723350e-01	1.000000e-01
5.500000e-01	2.219212e-10	3.764218e-12	2.947773e+01	5.279529e+01	2.795368e+04	7.938889e-15	4.203428e-12	-4.623350e-01	1.000000e-01
5.600000e-01	2.957069e-10	5.049783e-12	2.927917e+01	5.243797e+01	3.716224e+04	7.957185e-15	5.639175e-12	-4.523350e-01	1.000000e-01
5.700000e-01	3.928238e-10	6.760094e-12	2.905461e+01	5.203357e+01	4.922096e+04	7.980823e-15	7.549430e-12	-4.423350e-01	1.000000e-01
5.800000e-01	5.200520e-10	9.028112e-12	2.880181e+01	5.157790e+01	6.492461e+04	8.010091e-15	1.008284e-11	-4.323350e-01	1.000000e-01
5.900000e-01	6.858637e-10	1.202481e-11	2.851869e+01	5.106707e+01	8.525025e+04	8.045298e-15	1.343064e-11	-4.223350e-01	1.000000e-01
6.000000e-01	9.007264e-10	1.596837e-11	2.820345e+01	5.049760e+01	1.113828e+05	8.086766e-15	1.783702e-11	-4.123350e-01	1.000000e-01
6.100000e-01	1.177416e-09	2.113497e-11	2.785469e+01	4.986670e+01	1.447376e+05	8.134831e-15	2.361127e-11	-4.023350e-01	1.000000e-01
6.200000e-01	1.531325e-09	2.787107e-11	2.747159e+01	4.917256e+01	1.869787e+05	8.189838e-15	3.114186e-11	-3.923350e-01	1.000000e-01
6.300000e-01	1.980748e-09	3.660724e-11	2.705405e+01	4.841462e+01	2.400282e+05	8.252148e-15	4.091219e-11	-3.823350e-01	1.000000e-01
6.400000e-01	2.547136e-09	4.787331e-11	2.660288e+01	4.759382e+01	3.060678e+05	8.322128e-15	5.351820e-11	-3.723350e-01	1.000000e-01
6.500000e-01	3.255303e-09	6.231470e-11	2.611987e+01	4.671283e+01	3.875289e+05	8.400157e-15	6.968757e-11	-3.623350e-01	1.000000e-01
6.600000e-01	4.133613e-09	8.070970e-11	2.560790e+01	4.577619e+01	4.870742e+05	8.486617e-15	9.030049e-11	-3.523350e-01	1.000000e-01
6.700000e-01	5.214146e-09	1.039876e-10	2.507099e+01	4.479039e+01	6.075751e+05	8.581894e-15	1.164122e-10	-3.423350e-01	1.000000e-01
6.800000e-01	6.532931e-09	1.332480e-10	2.451418e+01	4.376369e+01	7.520896e+05	8.686374e-15	1.492774e-10	-3.323350e-01	1.000000e-01
6.900000e-01	8.130292e-09	1.697810e-10	2.394347e+01	4.270598e+01	9.238509e+05	8.800438e-15	1.903783e-10	-3.223350e-01	1.000000e-01
7.000000e-01	1.005141e-08	2.150902e-10	2.336557e+01	4.162831e+01	1.126276e+06	8.924462e-15	2.414561e-10	-3.123350e-01	1.000000e-01
7.100000e-01	1.234720e-08	2.709192e-10	2.278762e+01	4.054243e+01	1.363005e+06	9.058810e-15	3.045502e-10	-3.023350e-01	1.000000e-01
7.200000e-01	1.507562e-08	3.392828e-10	2.221689e+01	3.946019e+01	1.637973e+06	9.203829e-15	3.820463e-10	-2.923350e-01	1.000000e-01
7.300000e-01	1.830340e-08	4.225070e-10	2.166047e+01	3.839295e+01	1.955524e+06	9.359846e-15	4.767386e-10	-2.823350e-01	1.000000e-01
7.400000e-01	2.210842e-08	5.232781e-10	2.112493e+01	3.735099e+01	2.320568e+06	9.527161e-15	5.919100e-10	-2.723350e-01	1.000000e-01
7.500000e-01	2.658260e-08	6.447055e-10	2.061608e+01	3.634300e+01	2.738767e+06	9.706046e-15	7.314366e-10	-2.623350e-01	1.000000e-01
7.600000e-01	3.183547e-08	7.904007e-10	2.013881e+01	3.537575e+01	3.216765e+06	9.896735e-15	8.999234e-10	-2.523350e-01	1.000000e-01
7.700000e-01	3.799842e-08	9.645755e-10	1.969696e+01	3.445378e+01	3.762435e+06	1.009942e-14	1.102881e-09	-2.423350e-01	1.000000e-01
7.800000e-01	4.522978e-08	1.172164e-09	1.929328e+01	3.357936e+01	4.385169e+06	1.031426e-14	1.346952e-09	-2.323350e-01	1.000000e-01
7.900000e-01	5.372078e-08	1.418970e-09	1.892949e+01	3.275245e+01	5.096195e+06	1.054135e-14	1.640206e-09	-2.223350e-01	1.000000e-01
8.000000e-01	6.370264e-08	1.711854e-09	1.860633e+01	3.197080e+01	5.908925e+06	1.078075e-14	1.992526e-09	-2.123350e-01	1.000000e-01
8.100000e-01	7.545498e-08	2.058944e-09	1.832371e+01	3.123013e+01	6.839364e+06	1.103246e-14	2.416096e-09	-2.023350e-01	1.000000e-01
8.200000e-01	8.931581e-08	2.469914e-09	1.808076e+01	3.052428e+01	7.906557e+06	1.129642e-14	2.926058e-09	-1.923350e-01	1.000000e-01
8.300000e-01	1.056934e-07	2.956293e-09	1.787600e+01	2.984537e+01	9.133111e+06	1.157255e-14	3.541366e-09	-1.823350e-01	1.000000e-01
8.400000e-01	1.250801e-07	3.531857e-09	1.770742e+01	2.918404e+01	1.054577e+07	1.186069e-14	4.285910e-09	-1.723350e-01	1.000000e-01
8.500000e-01	1.480688e-07	4.213091e-09	1.757247e+01	2.852952e+01	1.217606e+07	1.216065e-14	5.190021e-09	-1.623350e-01	1.000000e-01
8.600000e-01	1.753709e-07	5.019727e-09	1.746817e+01	2.786987e+01	1.406094e+07	1.247220e-14	6.292488e-09	-1.523350e-01	1.000000e-01
8.700000e-01	2.078366e-07	5.975396e-09	1.739103e+01	2.719215e+01	1.624349e+07	1.279507e-14	7.643259e-09	-1.423350e-01	1.000000e-01
8.800000e-01	2.464769e-07	7.108374e-09	1.733708e+01	2.648264e+01	1.877350e+07	1.312898e-14	9.307111e-09	-1.323350e-01	1.000000e-01
8.900000e-01	2.924839e-07	8.452432e-09	1.730176e+01	2.572729e+01	2.170788e+07	1.347363e-14	1.136863e-08	-1.223350e-01	1.000000e-01
9.000000e-01	3.472503e-07	1.004780e-08	1.727992e+01	2.491215e+01	2.511088e+07	1.382868e-14	1.393899e-08	-1.123350e-01	1.000000e-01
9.100000e-01	4.123821e-07	1.194220e-08	1.726575e+01	2.402420e+01	2.905366e+07	1.419381e-14	1.716528e-08	-1.023350e-01	1.000000e-01
9.200000e-01	4.897020e-07	1.419192e-08	1.725284e+01	2.305219e+01	3.361335e+07	1.456867e-14	2.124319e-08	-9.233501e-02	1.000000e-01
9.300000e-01	5.812366e-07	1.686290e-08	1.723418e+01	2.198782e+01	3.887111e+07	1.495292e-14	2.643449e-08	-8.233501e-02	1.000000e-01
9.400000e-01	6.891818e-07	2.003163e-08	1.720234e+01	2.082697e+01	4.490902e+07	1.534618e-14	3.309084e-08	-7.233502e-02	1.000000e-01
9.500000e-01	8.158376e-07	2.378590e-08	1.714961e+01	1.957094e+01	5.180569e+07	1.574803e-14	4.168617e-08	-6.233502e-02	1.000000e-01
9.600000e-01	9.635083e-07	2.822504e-08	1.706833e+01	1.822748e+01	5.963038e+07	1.615801e-14	5.286021e-08	-5.233502e-02	1.000000e-01
9.700000e-01	1.134360e-06	3.345963e-08	1.695117e+01	1.681132e+01	6.843566e+07	1.657557e-14	6.747597e-08	-4.233502e-02	1.000000e-01
9.800000e-01	1.330237e-06	3.961038e-08	1.679152e+01	1.534411e+01	7.824897e+07	1.700005e-14	8.669364e-08	-3.233502e-02	1.000000e-01
9.900000e-01	1.552436e-06	4.680591e-08	1.658376e+01	1.385340e+01	8.906350e+07	1.743067e-14	1.120617e-07	-2.233502e-02	1.000000e-01
1.000000e+00	1.801462e-06	5.517950e-08	1.632365e+01	1.237082e+01	1.008293e+08	1.786645e-14	1.456218e-07	-1.233502e-02	1.000000e-01
1.010000e+00	2.076770e-06	6.486440e-08	1.600855e+01	1.092941e+01	1.134459e+08	1.830626e-14	1.900167e-07	-2.335019e-03	1.000000e-01
1.020000e+00	2.376550e-06	7.598806e-08	1.563765e+01	9.560595e+00	1.267575e+08	1.874879e-14	2.485776e-07	7.664981e-03	1.000000e-01
1.030000e+00	2.697582e-06	8.866539e-08	1.521215e+01	8.291207e+00	1.405538e+08	1.919253e-14	3.253545e-07	1.766498e-02	1.000000e-01
1.040000e+00	3.035234e-06	1.029916e-07	1.473534e+01	7.141056e+00	1.545763e+08	1.963584e-14	4.250400e-07	2.766498e-02	1.000000e-01
1.050000e+00	3.383644e-06	1.190357e-07	1.421273e+01	6.121569e+00	1.685337e+08	2.007696e-14	5.527413e-07	3.766498e-02	1.000000e-01
1.060000e+00	3.736107e-06	1.368348e-07	1.365189e+01	5.235668e+00	1.821239e+08	2.051409e-14	7.135875e-07	4.766498e-02	1.000000e-01
1.070000e+00	4.085635e-06	1.563918e-07	1.306218e+01	4.478814e+00	1.950610e+08	2.094542e-14	9.122137e-07	5.766497e-02	1.000000e-01
1.080000e+00	4.425591e-06	1.776751e-07	1.245417e+01	3.840880e+00	2.071013e+08	2.136921e-14	1.152234e-06	6.766497e-02	1.000000e-01
1.090000e+00	4.750261e-06	2.006221e-07	1.183883e+01	3.308354e+00	2.180636e+08	2.178383e-14	1.435838e-06	7.766497e-02	1.000000e-01
1.100000e+00	5.055238e-06	2.251448e-07	1.122664e+01	2.866384e+00	2.278384e+08	2.218782e-14	1.763629e-06	8.766497e-02	1.000000e-01
1.110000e+00	5.337572e-06	2.511366e-07	1.062683e+01	2.500374e+00	2.363857e+08	2.257993e-14	2.134710e-06	9.766497e-02	1.000000e-01
1.120000e+00	5.595695e-06	2.784800e-07	1.004685e+01	2.196998e+00	2.437243e+08	2.295912e-14	2.546973e-06	1.076650e-01	1.000000e-01
1.130000e+00	5.829204e-06	3.070524e-07	9.492198e+00	1.944702e+00	2.499168e+08	2.332458e-14	2.997479e-06	1.176650e-01	1.000000e-01
1.140000e+00	6.038585e-06	3.367317e-07	8.966465e+00	1.733815e+00	2.550539e+08	2.367573e-14	3.482831e-06	1.276650e-01	1.000000e-01
1.150000e+00	6.224942e-06	3.673997e-07	8.471620e+00	1.556439e+00	2.592410e+08	2.401218e-14	3.999476e-06	1.376650e-01	1.000000e-01
1.160000e+00	6.389760e-06	3.989450e-07	8.008322e+00	1.406219e+00	2.625882e+08	2.433377e-14	4.543928e-06	1.476650e-01	1.000000e-01
1.170000e+00	6.534731e-06	4.312641e-07	7.576253e+00	1.278088e+00	2.652033e+08	2.464046e-14	5.112896e-06	1.576650e-01	1.000000e-01
1.180000e+00	6.661621e-06	4.642620e-07	7.174420e+00	1.168016e+00	2.671873e+08	2.493241e-14	5.703363e-06	1.676650e-01	1.000000e-01
1.190000e+00	6.772182e-06	4.978529e-07	6.801389e+00	1.072803e+00	2.686324e+08	2.520985e-14	6.312608e-06	1.776649e-01	1.000000e-01
1.200000e+00	6.868094e-06	5.319592e-07	6.455470e+00	9.898945e-01	2.696211e+08	2.547313e-14	6.938208e-06	1.876649e-01	1.000000e-01
1.210000e+00	6.950933e-06	5.665118e-07	6.134853e+00	9.172489e-01	2.702259e+08	2.572268e-14	7.578023e-06	1.976649e-01	1.000000e-01
1.220000e+00	7.022153e-06	6.014490e-07	5.837696e+00	8.532207e-01	2.705096e+08	2.595897e-14	8.230172e-06	2.076649e-01	1.000000e-01
1.230000e+00	7.083075e-06	6.367159e-07	5.562194e+00	7.964772e-01	2.705267e+08	2.618254e-14	8.893005e-06	2.176649e-01	1.000000e-01
1.240000e+00	7.134893e-06	6.722643e-07	5.306613e+00	7.459315e-01	2.703233e+08	2.639392e-14	9.565078e-06	2.276649e-01	1.000000e-01
1.250000e+00	7.178673e-06	7.080512e-07	5.069318e+00	7.006913e-01	2.699390e+08	2.659368e-14	1.024513e-05	2.376649e-01	1.000000e-01
1.260000e+00	7.215364e-06	7.440389e-07	4.848782e+00	6.600192e-01	2.694071e+08	2.678239e-14	1.093205e-05	2.476649e-01	1.000000e-01
1.270000e+00	7.245809e-06	7.801941e-07	4.643593e+00	6.233016e-01	2.687554e+08	2.696060e-14	1.162488e-05	2.576649e-01	1.000000e-01
1.280000e+00	7.270746e-06	8.164875e-07	4.452454e+00	5.900251e-01	2.680075e+08	2.712889e-14	1.232278e-05	2.676649e-01	1.000000e-01
1.290000e+00	7.290830e-06	8.528931e-07	4.274176e+00	5.597573e-01	2.671829e+08	2.728779e-14	1.302498e-05	2.776649e-01	1.000000e-01
1.300000e+00	7.306632e-06	8.893883e-07	4.107673e+00	5.321323e-01	2.662977e+08	2.743783e-14	1.373086e-05	2.876649e-01	1.000000e-01
1.310000e+00	7.318653e-06	9.259528e-07	3.951958e+00	5.068383e-01	2.653655e+08	2.757952e-14	1.443982e-05	2.976649e-01	1.000000e-01
1.320000e+00	7.327331e-06	9.625688e-07	3.806133e+00	4.836086e-01	2.643971e+08	2.771336e-14	1.515137e-05	3.076649e-01	1.000000e-01
1.330000e+00	7.333048e-06	9.992207e-07	3.669384e+00	4.622141e-01	2.634016e+08	2.783980e-14	1.586505e-05	3.176649e-01	1.000000e-01
1.340000e+00	7.336140e-06	1.035894e-06	3.540969e+00	4.424567e-01	2.623864e+08	2.795930e-14	1.658047e-05	3.276649e-01	1.000000e-01
1.350000e+00	7.336898e-06	1.072578e-06	3.420217e+00	4.241649e-01	2.613575e+08	2.807227e-14	1.729728e-05	3.376649e-01	1.000000e-01
1.360000e+00	7.335576e-06	1.109260e-06	3.306519e+00	4.071891e-01	2.603195e+08	2.817913e-14	1.801516e-05	3.476649e-01	1.000000e-01
1.370000e+00	7.332397e-06	1.145930e-06	3.199322e+00	3.913986e-01	2.592764e+08	2.828024e-14	1.873384e-05	3.576649e-01	1.000000e-01
1.380000e+00	7.327555e-06	1.182580e-06	3.098122e+00	3.766788e-01	2.582310e+08	2.837597e-14	1.945306e-05	3.676649e-01	1.000000e-01
1.390000e+00	7.321220e-06	1.219203e-06	3.002463e+00	3.629289e-01	2.571859e+08	2.846664e-14	2.017260e-05	3.776649e-01	1.000000e-01
1.400000e+00	7.313539e-06	1.255790e-06	2.911928e+00	3.500597e-01	2.561427e+08	2.855259e-14	2.089226e-05	3.876649e-01	1.000000e-01
1.410000e+00	7.304642e-06	1.292335e-06	2.826140e+00	3.379924e-01	2.551029e+08	2.863411e-14	2.161185e-05	3.976649e-01	1.000000e-01
1.420000e+00	7.294644e-06	1.328834e-06	2.744754e+00	3.266568e-01	2.540673e+08	2.871147e-14	2.233122e-05	4.076649e-01	1.000000e-01
1.430000e+00	7.283644e-06	1.365280e-06	2.667455e+00	3.159904e-01	2.530367e+08	2.878493e-14	2.305020e-05	4.176649e-01	1.000000e-01
1.440000e+00	7.271730e-06	1.401668e-06	2.593956e+00	3.059375e-01	2.520115e+08	2.885475e-14	2.376868e-05	4.276649e-01	1.000000e-01
1.450000e+00	7.258978e-06	1.437995e-06	2.523993e+00	2.964481e-01	2.509920e+08	2.892115e-14	2.448651e-05	4.376649e-01	1.000000e-01
1.460000e+00	7.245457e-06	1.474256e-06	2.457327e+00	2.874773e-01	2.499783e+08	2.898435e-14	2.520358e-05	4.476649e-01	1.000000e-01
1.470000e+00	7.231228e-06	1.510448e-06	2.393737e+00	2.789847e-01	2.489702e+08	2.904455e-14	2.591980e-05	4.576649e-01	1.000000e-01
1.480000e+00	7.216343e-06	1.546566e-06	2.333021e+00	2.709340e-01	2.479679e+08	2.910193e-14	2.663506e-05	4.676649e-01	1.000000e-01
1.490000e+00	7.200849e-06	1.582609e-06	2.274992e+00	2.632921e-01	2.469709e+08	2.915667e-14	2.734928e-05	4.776649e-01	1.000000e-01
1.500000e+00	7.184788e-06	1.618573e-06	2.219482e+00	2.560293e-01	2.459791e+08	2.920894e-14	2.806237e-05	4.876649e-01	1.000000e-01
1.510000e+00	7.168199e-06	1.654456e-06	2.166331e+00	2.491185e-01	2.449923e+08	2.925888e-14	2.877425e-05	4.976649e-01	1.000000e-01
